   0.0000    461993
   0.0050    365324
   0.0100    282572
   0.0150    225771
   0.0200    190547
   0.0250    171342
   0.0300    156973
   0.0350    146809
   0.0400    142017
   0.0450    138636
   0.0500    128490
   0.0550    119750
   0.0600    111970
   0.0650    101093
   0.0700     94736
   0.0750     93476
   0.0800     89536
   0.0850     88752
   0.0900     88565
   0.0950     87139
   0.1000     82511
   0.1050     79000
   0.1100     75036
   0.1150     70036
   0.1200     62980
   0.1250     56278
   0.1300     51810
   0.1350     48691
   0.1400     43902
   0.1450     38638
   0.1500     33160
   0.1550     29000
   0.1600     26034
   0.1650     23564
   0.1700     21980
   0.1750     20345
   0.1800     18268
   0.1850     16681
   0.1900     15001
   0.1950     13178
   0.2000     11608
   0.2050     10312
   0.2100      8941
   0.2150      7761
   0.2200      6394
   0.2250      5392
   0.2300      4401
   0.2350      3587
   0.2400      2939
   0.2450      2421
   0.2500      1863
   0.2550      1599
   0.2600      1417
   0.2650      1253
   0.2700      1069
   0.2750       957
   0.2800       850
   0.2850       776
   0.2900       745
   0.2950       690
   0.3000       562
   0.3050       598
   0.3100       555
   0.3150       499
   0.3200       466
   0.3250       390
   0.3300       408
   0.3350       414
   0.3400       380
   0.3450       396
   0.3500       350
   0.3550       347
   0.3600       352
   0.3650       329
   0.3700       267
   0.3750       249
   0.3800       243
   0.3850       222
   0.3900       217
   0.3950       245
   0.4000       247
   0.4050       218
   0.4100       214
   0.4150       206
   0.4200       180
   0.4250       167
   0.4300       173
   0.4350       161
   0.4400       173
   0.4450       166
   0.4500       163
   0.4550       168
   0.4600       162
   0.4650       154
   0.4700       138
   0.4750       117
   0.4800       110
   0.4850       114
   0.4900       128
   0.4950       132
   0.5000       131
   0.5050       130
   0.5100       106
   0.5150       123
   0.5200        89
   0.5250        96
   0.5300        90
   0.5350        87
   0.5400        97
   0.5450       101
   0.5500       109
   0.5550        95
   0.5600        97
   0.5650        80
   0.5700        79
   0.5750        87
   0.5800        57
   0.5850        58
   0.5900        70
   0.5950        65
   0.6000        72
   0.6050        84
   0.6100        73
   0.6150        72
   0.6200        81
   0.6250        68
   0.6300        55
   0.6350        51
   0.6400        48
   0.6450        67
   0.6500        68
   0.6550        58
   0.6600        78
   0.6650        64
   0.6700        63
   0.6750        67
   0.6800        71
   0.6850        47
   0.6900        61
   0.6950        53
   0.7000        59
   0.7050        59
   0.7100        65
   0.7150        74
   0.7200        59
   0.7250        37
   0.7300        38
   0.7350        50
   0.7400        31
   0.7450        46
   0.7500        36
   0.7550        34
   0.7600        44
   0.7650        43
   0.7700        39
   0.7750        28
   0.7800        42
   0.7850        25
   0.7900        32
   0.7950        27
   0.8000        33
   0.8050        28
   0.8100        31
   0.8150        40
   0.8200        31
   0.8250        24
   0.8300        24
   0.8350        32
   0.8400        20
   0.8450        20
   0.8500        23
   0.8550        27
   0.8600        23
   0.8650        34
   0.8700        25
   0.8750        19
   0.8800        20
   0.8850        20
   0.8900        23
   0.8950        16
   0.9000        20
   0.9050        16
   0.9100        22
   0.9150        17
   0.9200        21
   0.9250        14
   0.9300        23
   0.9350        19
   0.9400        20
   0.9450        15
   0.9500        14
   0.9550         9
   0.9600        15
   0.9650        18
   0.9700         8
   0.9750        14
   0.9800        15
   0.9850        14
   0.9900        17
   0.9950        17
   1.0000        18
   1.0050         8
   1.0100         7
   1.0150         8
   1.0200        18
   1.0250        13
   1.0300        20
   1.0350         8
   1.0400        18
   1.0450         9
   1.0500        14
   1.0550         9
   1.0600         5
   1.0650        14
   1.0700         9
   1.0750         6
   1.0800         7
   1.0850         9
   1.0900        15
   1.0950         5
   1.1000         9
   1.1050         7
   1.1100         5
   1.1150         7
   1.1200         4
   1.1250        10
   1.1300         8
   1.1350         8
   1.1400        14
   1.1450         9
   1.1500         7
   1.1550         4
   1.1600         8
   1.1650         7
   1.1700         4
   1.1750         9
   1.1800         8
   1.1850        10
   1.1900         9
   1.1950         9
   1.2000         8
   1.2050         6
   1.2100         7
   1.2150         9
   1.2200         7
   1.2250         2
   1.2300         5
   1.2350         3
   1.2400         4
   1.2450         9
   1.2500         6
   1.2550         7
   1.2600         4
   1.2650         4
   1.2700         4
   1.2750         4
   1.2800         3
   1.2850         2
   1.2900         1
   1.2950        13
   1.3000         1
   1.3050         5
   1.3100         5
   1.3150         5
   1.3200         3
   1.3250         3
   1.3300         2
   1.3350         2
   1.3400         2
   1.3450         3
   1.3500         2
   1.3550         3
   1.3600         5
   1.3650         1
   1.3700         4
   1.3750         1
   1.3800         0
   1.3850         6
   1.3900         2
   1.3950         2
   1.4000         2
   1.4050         2
   1.4100         3
   1.4150         2
   1.4200         4
   1.4250         3
   1.4300         1
   1.4350         1
   1.4400         2
   1.4450         2
   1.4500         4
   1.4550         2
   1.4600         3
   1.4650         3
   1.4700         1
   1.4750         1
   1.4800         1
   1.4850         3
   1.4900         2
   1.4950         1
   1.5000         2
   1.5050         6
   1.5100         2
   1.5150         1
   1.5200         3
   1.5250         1
   1.5300         3
   1.5350         1
   1.5400         0
   1.5450         0
   1.5500         1
   1.5550         2
   1.5600         0
   1.5650         0
   1.5700         1
   1.5750         0
   1.5800         2
   1.5850         0
   1.5900         2
   1.5950         1
   1.6000         0
   1.6050         1
   1.6100         4
   1.6150         2
   1.6200         2
   1.6250         0
   1.6300         0
   1.6350         1
   1.6400         0
   1.6450         1
   1.6500         0
   1.6550         4
   1.6600         1
   1.6650         1
   1.6700         2
   1.6750         0
   1.6800         1
   1.6850         1
   1.6900         0
   1.6950         1
   1.7000         1
   1.7050         1
   1.7100         0
   1.7150         2
   1.7200         0
   1.7250         1
   1.7300         2
   1.7350         2
   1.7400         2
   1.7450         1
   1.7500         1
   1.7550         0
   1.7600         1
   1.7650         1
   1.7700         0
   1.7750         2
   1.7800         0
   1.7850         0
   1.7900         1
   1.7950         1
   1.8000         0
   1.8050         1
   1.8100         1
   1.8150         1
   1.8200         0
   1.8250         0
   1.8300         0
   1.8350         2
   1.8400         0
   1.8450         0
   1.8500         0
   1.8550         1
   1.8600         0
   1.8650         1
   1.8700         1
   1.8750         0
   1.8800         2
   1.8850         0
   1.8900         0
   1.8950         0
   1.9000         1
   1.9050         2
   1.9100         0
   1.9150         1
   1.9200         0
   1.9250         0
   1.9300         1
   1.9350         3
   1.9400         1
   1.9450         1
   1.9500         1
   1.9550         0
   1.9600         0
   1.9650         2
   1.9700         0
   1.9750         0
   1.9800         0
   1.9850         0
   1.9900         0
   1.9950         0
   2.0000         0
   2.0050         1
   2.0100         0
   2.0150         1
   2.0200         2
   2.0250         0
   2.0300         0
   2.0350         0
   2.0400         0
   2.0450         2
   2.0500         0
   2.0550         1
   2.0600         1
   2.0650         1
   2.0700         1
   2.0750         0
   2.0800         0
   2.0850         1
   2.0900         0
   2.0950         0
   2.1000         0
   2.1050         1
   2.1100         0
   2.1150         0
   2.1200         0
   2.1250         0
   2.1300         0
   2.1350         1
   2.1400         0
   2.1450         2
   2.1500         0
   2.1550         0
   2.1600         0
   2.1650         0
   2.1700         0
   2.1750         0
   2.1800         0
   2.1850         0
   2.1900         4
   2.1950         1
   2.2000         0
   2.2050         0
   2.2100         0
   2.2150         0
   2.2200         1
   2.2250         0
   2.2300         0
   2.2350         1
   2.2400         1
   2.2450         0
   2.2500         1
   2.2550         1
   2.2600         0
   2.2650         0
   2.2700         0
   2.2750         1
   2.2800         0
   2.2850         0
   2.2900         1
   2.2950         0
   2.3000         0
   2.3050         0
   2.3100         0
   2.3150         0
   2.3200         0
   2.3250         0
   2.3300         0
   2.3350         0
   2.3400         0
   2.3450         0
   2.3500         0
   2.3550         0
   2.3600         0
   2.3650         0
   2.3700         0
   2.3750         0
   2.3800         1
   2.3850         0
   2.3900         0
   2.3950         1
   2.4000         0
   2.4050         1
   2.4100         0
   2.4150         0
   2.4200         0
   2.4250         0
   2.4300         1
   2.4350         0
   2.4400         0
   2.4450         0
   2.4500         0
   2.4550         1
   2.4600         0
   2.4650         0
   2.4700         0
   2.4750         1
   2.4800         0
   2.4850         0
   2.4900         0
   2.4950         0
   2.5000         0
