   0.0000   2016610
   0.0050   2576540
   0.0100   3040420
   0.0150   3312030
   0.0200   3319970
   0.0250   3099880
   0.0300   2707270
   0.0350   2133150
   0.0400   1557900
   0.0450   1157930
   0.0500    927989
   0.0550    834627
   0.0600    794274
   0.0650    773647
   0.0700    780323
   0.0750    803106
   0.0800    832889
   0.0850    861013
   0.0900    900260
   0.0950    940266
   0.1000    978036
   0.1050   1015400
   0.1100   1049810
   0.1150   1076270
   0.1200   1111710
   0.1250   1153290
   0.1300   1188610
   0.1350   1227100
   0.1400   1256510
   0.1450   1281090
   0.1500   1321970
   0.1550   1338240
   0.1600   1367290
   0.1650   1389900
   0.1700   1411510
   0.1750   1432780
   0.1800   1446000
   0.1850   1472880
   0.1900   1497860
   0.1950   1498390
   0.2000   1501550
   0.2050   1480350
   0.2100   1426930
   0.2150   1350720
   0.2200   1246400
   0.2250   1117450
   0.2300    972443
   0.2350    824507
   0.2400    725087
   0.2450    591153
   0.2500    453597
   0.2550    335088
   0.2600    248160
   0.2650    192194
   0.2700    160491
   0.2750    142293
   0.2800    127732
   0.2850    113374
   0.2900     98366
   0.2950     83500
   0.3000     71191
   0.3050     62752
   0.3100     57488
   0.3150     54289
   0.3200     52452
   0.3250     49091
   0.3300     45278
   0.3350     39844
   0.3400     34932
   0.3450     31386
   0.3500     28674
   0.3550     27705
   0.3600     27212
   0.3650     26573
   0.3700     25423
   0.3750     23374
   0.3800     20979
   0.3850     18968
   0.3900     16763
   0.3950     15897
   0.4000     15219
   0.4050     15105
   0.4100     15205
   0.4150     14991
   0.4200     14170
   0.4250     12767
   0.4300     11533
   0.4350     10214
   0.4400      9228
   0.4450      8727
   0.4500      8934
   0.4550      9142
   0.4600      9278
   0.4650      9157
   0.4700      8456
   0.4750      7680
   0.4800      6838
   0.4850      6238
   0.4900      5573
   0.4950      5422
   0.5000      5640
   0.5050      5712
   0.5100      5965
   0.5150      5852
   0.5200      5409
   0.5250      5012
   0.5300      4494
   0.5350      3796
   0.5400      3549
   0.5450      3524
   0.5500      3522
   0.5550      3785
   0.5600      3867
   0.5650      3946
   0.5700      3612
   0.5750      3449
   0.5800      3101
   0.5850      2594
   0.5900      2398
   0.5950      2350
   0.6000      2378
   0.6050      2479
   0.6100      2632
   0.6150      2635
   0.6200      2577
   0.6250      2366
   0.6300      2157
   0.6350      1885
   0.6400      1602
   0.6450      1524
   0.6500      1540
   0.6550      1682
   0.6600      1760
   0.6650      1818
   0.6700      1810
   0.6750      1698
   0.6800      1575
   0.6850      1327
   0.6900      1200
   0.6950      1071
   0.7000      1002
   0.7050      1113
   0.7100      1205
   0.7150      1342
   0.7200      1317
   0.7250      1215
   0.7300      1112
   0.7350      1081
   0.7400       884
   0.7450       794
   0.7500       763
   0.7550       802
   0.7600       816
   0.7650       894
   0.7700       881
   0.7750       919
   0.7800       852
   0.7850       807
   0.7900       709
   0.7950       573
   0.8000       535
   0.8050       547
   0.8100       544
   0.8150       586
   0.8200       637
   0.8250       649
   0.8300       635
   0.8350       616
   0.8400       528
   0.8450       437
   0.8500       412
   0.8550       402
   0.8600       404
   0.8650       417
   0.8700       402
   0.8750       465
   0.8800       444
   0.8850       476
   0.8900       428
   0.8950       365
   0.9000       336
   0.9050       321
   0.9100       260
   0.9150       276
   0.9200       349
   0.9250       312
   0.9300       349
   0.9350       353
   0.9400       291
   0.9450       257
   0.9500       258
   0.9550       238
   0.9600       225
   0.9650       220
   0.9700       198
   0.9750       257
   0.9800       260
   0.9850       236
   0.9900       229
   0.9950       224
   1.0000       202
   1.0050       165
   1.0100       164
   1.0150       168
   1.0200       139
   1.0250       159
   1.0300       194
   1.0350       181
   1.0400       187
   1.0450       196
   1.0500       162
   1.0550       144
   1.0600       135
   1.0650       111
   1.0700       126
   1.0750       115
   1.0800       147
   1.0850       122
   1.0900       133
   1.0950       128
   1.1000       130
   1.1050       128
   1.1100        98
   1.1150        99
   1.1200        86
   1.1250        83
   1.1300        94
   1.1350       100
   1.1400       108
   1.1450       123
   1.1500       101
   1.1550        99
   1.1600        72
   1.1650        73
   1.1700        74
   1.1750        66
   1.1800        74
   1.1850        70
   1.1900        90
   1.1950        84
   1.2000        72
   1.2050        69
   1.2100        71
   1.2150        59
   1.2200        65
   1.2250        50
   1.2300        57
   1.2350        55
   1.2400        59
   1.2450        60
   1.2500        59
   1.2550        71
   1.2600        59
   1.2650        60
   1.2700        41
   1.2750        39
   1.2800        45
   1.2850        43
   1.2900        46
   1.2950        40
   1.3000        64
   1.3050        46
   1.3100        32
   1.3150        36
   1.3200        49
   1.3250        37
   1.3300        34
   1.3350        33
   1.3400        39
   1.3450        35
   1.3500        30
   1.3550        37
   1.3600        39
   1.3650        30
   1.3700        42
   1.3750        17
   1.3800        23
   1.3850        18
   1.3900        26
   1.3950        28
   1.4000        32
   1.4050        21
   1.4100        28
   1.4150        31
   1.4200        25
   1.4250        20
   1.4300        16
   1.4350        20
   1.4400        23
   1.4450        16
   1.4500        20
   1.4550        17
   1.4600        18
   1.4650        16
   1.4700        25
   1.4750        17
   1.4800        13
   1.4850        18
   1.4900        15
   1.4950        11
   1.5000        14
   1.5050        20
   1.5100        14
   1.5150        22
   1.5200        13
   1.5250        22
   1.5300        29
   1.5350        10
   1.5400        15
   1.5450        17
   1.5500        15
   1.5550        15
   1.5600         6
   1.5650        22
   1.5700        13
   1.5750        17
   1.5800        14
   1.5850        12
   1.5900        16
   1.5950         8
   1.6000        10
   1.6050         8
   1.6100         8
   1.6150        14
   1.6200         9
   1.6250         6
   1.6300        13
   1.6350        13
   1.6400         6
   1.6450        10
   1.6500         8
   1.6550        10
   1.6600         5
   1.6650         9
   1.6700         5
   1.6750         7
   1.6800         8
   1.6850         7
   1.6900         5
   1.6950         6
   1.7000         6
   1.7050         4
   1.7100         6
   1.7150         6
   1.7200         7
   1.7250         6
   1.7300        10
   1.7350         4
   1.7400         6
   1.7450         3
   1.7500         4
   1.7550         3
   1.7600         5
   1.7650         5
   1.7700        11
   1.7750         7
   1.7800         6
   1.7850         1
   1.7900         7
   1.7950         8
   1.8000         9
   1.8050         3
   1.8100         5
   1.8150         4
   1.8200         2
   1.8250         7
   1.8300         4
   1.8350         2
   1.8400         4
   1.8450         3
   1.8500         2
   1.8550         3
   1.8600         3
   1.8650         3
   1.8700         3
   1.8750         0
   1.8800         1
   1.8850         6
   1.8900         4
   1.8950         4
   1.9000         3
   1.9050         3
   1.9100         2
   1.9150         1
   1.9200         1
   1.9250         4
   1.9300         3
   1.9350         3
   1.9400         2
   1.9450         1
   1.9500         3
   1.9550         1
   1.9600         5
   1.9650         2
   1.9700         3
   1.9750         3
   1.9800         2
   1.9850         2
   1.9900         2
   1.9950         3
   2.0000         4
   2.0050         0
   2.0100         3
   2.0150         4
   2.0200         2
   2.0250         3
   2.0300         2
   2.0350         1
   2.0400         1
   2.0450         4
   2.0500         1
   2.0550         1
   2.0600         0
   2.0650         4
   2.0700         2
   2.0750         2
   2.0800         3
   2.0850         2
   2.0900         0
   2.0950         2
   2.1000         5
   2.1050         0
   2.1100         3
   2.1150         3
   2.1200         1
   2.1250         0
   2.1300         0
   2.1350         0
   2.1400         0
   2.1450         2
   2.1500         1
   2.1550         1
   2.1600         3
   2.1650         1
   2.1700         3
   2.1750         2
   2.1800         1
   2.1850         2
   2.1900         3
   2.1950         2
   2.2000         0
   2.2050         4
   2.2100         0
   2.2150         0
   2.2200         0
   2.2250         1
   2.2300         2
   2.2350         2
   2.2400         1
   2.2450         1
   2.2500         2
   2.2550         0
   2.2600         1
   2.2650         2
   2.2700         0
   2.2750         2
   2.2800         3
   2.2850         0
   2.2900         0
   2.2950         1
   2.3000         2
   2.3050         0
   2.3100         0
   2.3150         1
   2.3200         1
   2.3250         3
   2.3300         1
   2.3350         0
   2.3400         1
   2.3450         2
   2.3500         1
   2.3550         0
   2.3600         0
   2.3650         1
   2.3700         0
   2.3750         2
   2.3800         1
   2.3850         0
   2.3900         0
   2.3950         1
   2.4000         0
   2.4050         0
   2.4100         0
   2.4150         0
   2.4200         1
   2.4250         0
   2.4300         3
   2.4350         1
   2.4400         3
   2.4450         2
   2.4500         1
   2.4550         0
   2.4600         0
   2.4650         0
   2.4700         1
   2.4750         0
   2.4800         0
   2.4850         0
   2.4900         0
   2.4950         1
   2.5000         1
