  -1.0000    941380
  -0.9800    939705
  -0.9600    938836
  -0.9400    936261
  -0.9200    939500
  -0.9000    943766
  -0.8800    940669
  -0.8600    935005
  -0.8400    938931
  -0.8200    940606
  -0.8000    941277
  -0.7800    935431
  -0.7600    938457
  -0.7400    941964
  -0.7200    937991
  -0.7000    943118
  -0.6800    935881
  -0.6600    942723
  -0.6400    943118
  -0.6200    939650
  -0.6000    940400
  -0.5800    942020
  -0.5600    940614
  -0.5400    941443
  -0.5200    941490
  -0.5000    942683
  -0.4800    937951
  -0.4600    937983
  -0.4400    938891
  -0.4200    937635
  -0.4000    946768
  -0.3800    939128
  -0.3600    938694
  -0.3400    935486
  -0.3200    940685
  -0.3000    938433
  -0.2800    941135
  -0.2600    942857
  -0.2400    944050
  -0.2200    942091
  -0.2000    942083
  -0.1800    940811
  -0.1600    948063
  -0.1400    940906
  -0.1200    943007
  -0.1000    946183
  -0.0800    942573
  -0.0600    950015
  -0.0400    951863
  -0.0200    947716
   0.0000    954454
   0.0200    931157
   0.0400    879215
   0.0600    805484
   0.0800    700469
   0.1000    577925
   0.1200    443245
   0.1400    314934
   0.1600    201363
   0.1800    117820
   0.2000     48746
   0.2200      7870
   0.2400        39
   0.2600         2
   0.2800         0
   0.3000         0
   0.3200         0
   0.3400         0
   0.3600         1
   0.3800         0
   0.4000         5
   0.4200        10
   0.4400        18
   0.4600        23
   0.4800        32
   0.5000        49
   0.5200        79
   0.5400       136
   0.5600       203
   0.5800       359
   0.6000       603
   0.6200       984
   0.6400      1420
   0.6600      2116
   0.6800      3900
   0.7000      6209
   0.7200     10062
   0.7400     15360
   0.7600     18860
   0.7800     21267
   0.8000     21790
   0.8200     19178
   0.8400     15591
   0.8600     11740
   0.8800      7241
   0.9000      2990
   0.9200       291
   0.9400        21
   0.9600         1
   0.9800         0
   1.0000         0
